159.571	5.00
159.963	6.00
160.354	18.00
160.746	13.00
161.137	1.00
161.528	-6.00
161.920	1.00
162.311	9.00
162.703	6.00
163.094	1.00
163.485	-9.00
163.877	-2.00
164.268	9.00
164.660	-2.00
165.051	23.00
165.442	-1.00
165.834	14.00
166.225	1.00
166.616	2.00
167.007	11.00
167.399	-5.00
167.790	4.00
168.181	0.00
168.573	-2.00
168.964	9.00
169.355	-5.00
169.746	-1.00
170.138	9.00
170.529	4.00
170.920	0.00
171.311	-4.00
171.702	6.00
172.094	4.00
172.485	1.00
172.876	-4.00
173.267	3.00
173.658	-2.00
174.050	1.00
174.441	2.00
174.832	3.00
175.223	0.00
175.614	5.00
176.005	-5.00
176.396	2.00
176.787	12.00
177.179	-6.00
177.570	0.00
177.961	6.00
178.352	-1.00
178.743	5.00
179.134	8.00
179.525	6.00
179.916	-6.00
180.307	10.00
180.698	-3.00
181.089	4.00
181.480	-4.00
181.871	8.00
182.262	5.00
182.653	-4.00
183.044	7.00
183.435	5.00
183.826	4.00
184.217	6.00
184.608	7.00
184.999	3.00
185.390	9.00
185.781	4.00
186.172	-4.00
186.563	6.00
186.954	-13.00
187.345	0.00
187.736	13.00
188.126	5.00
188.517	3.00
188.908	-3.00
189.299	3.00
189.690	0.00
190.081	8.00
190.472	6.00
190.862	12.00
191.253	-15.00
191.644	-1.00
192.035	0.00
192.426	9.00
192.817	12.00
193.207	3.00
193.598	-3.00
193.989	3.00
194.380	4.00
194.771	8.00
195.161	4.00
195.552	9.00
195.943	0.00
196.334	2.00
196.724	9.00
197.115	0.00
197.506	4.00
197.897	0.00
198.287	2.00
198.678	3.00
199.069	7.00
199.459	14.00
199.850	-5.00
200.241	-1.00
200.632	2.00
201.022	-8.00
201.413	15.00
201.804	2.00
202.194	3.00
202.585	-2.00
202.976	2.00
203.366	9.00
203.757	12.00
204.147	5.00
204.538	5.00
204.929	4.00
205.319	1.00
205.710	2.00
206.101	5.00
206.491	-12.00
206.882	8.00
207.272	6.00
207.663	5.00
208.053	18.00
208.444	-9.00
208.835	-1.00
209.225	18.00
209.616	-3.00
210.006	-1.00
210.397	8.00
210.787	11.00
211.178	6.00
211.568	4.00
211.959	-7.00
212.349	8.00
212.740	5.00
213.130	3.00
213.521	20.00
213.911	-6.00
214.302	3.00
214.692	-7.00
215.083	8.00
215.473	-2.00
215.864	9.00
216.254	-1.00
216.645	5.00
217.035	-6.00
217.426	2.00
217.816	14.00
218.206	-6.00
218.597	11.00
218.987	12.00
219.378	13.00
219.768	14.00
220.159	4.00
220.549	2.00
220.939	-3.00
221.330	4.00
221.720	0.00
222.111	9.00
222.501	3.00
222.891	5.00
223.282	7.00
223.672	3.00
224.062	8.00
224.453	9.00
224.843	-4.00
225.233	3.00
225.624	-2.00
226.014	-6.00
226.404	8.00
226.795	-2.00
227.185	9.00
227.575	4.00
227.966	3.00
228.356	0.00
228.746	0.00
229.137	7.00
229.527	-2.00
229.917	11.00
230.308	5.00
230.698	10.00
231.088	7.00
231.478	5.00
231.869	3.00
232.259	-2.00
232.649	4.00
233.040	5.00
233.430	2.00
233.820	19.00
234.210	3.00
234.601	10.00
234.991	5.00
235.381	-10.00
235.771	7.00
236.161	-1.00
236.552	-3.00
236.942	0.00
237.332	0.00
237.722	10.00
238.113	9.00
238.503	8.00
238.893	2.00
239.283	6.00
239.673	6.00
240.064	15.00
240.454	9.00
240.844	-2.00
241.234	6.00
241.624	5.00
242.014	-6.00
242.405	11.00
242.795	7.00
243.185	5.00
243.575	3.00
243.965	6.00
244.355	15.00
244.746	14.00
245.136	4.00
245.526	-1.00
245.916	-4.00
246.306	2.00
246.696	-6.00
247.086	8.00
247.477	0.00
247.867	7.00
248.257	5.00
248.647	5.00
249.037	9.00
249.427	-2.00
249.817	9.00
250.207	5.00
250.598	-3.00
250.988	17.00
251.378	-2.00
251.768	15.00
252.158	6.00
252.548	-7.00
252.938	8.00
253.328	11.00
253.718	7.00
254.108	5.00
254.498	3.00
254.888	9.00
255.279	10.00
255.669	5.00
256.059	8.00
256.449	-1.00
256.839	6.00
257.229	-8.00
257.619	4.00
258.009	4.00
258.399	14.00
258.789	3.00
259.179	4.00
259.569	13.00
259.959	-5.00
260.349	11.00
260.739	1.00
261.129	2.00
261.519	11.00
261.909	5.00
262.299	19.00
262.689	11.00
263.079	4.00
263.469	5.00
263.859	-3.00
264.249	10.00
264.639	10.00
265.029	2.00
265.419	3.00
265.810	8.00
266.199	7.00
266.589	2.00
266.979	13.00
267.369	3.00
267.759	7.00
268.149	7.00
268.539	8.00
268.929	10.00
269.319	16.00
269.709	-2.00
270.099	5.00
270.489	-7.00
270.879	8.00
271.269	-1.00
271.659	-7.00
272.049	4.00
272.439	8.00
272.829	13.00
273.219	8.00
273.609	21.00
273.999	-1.00
274.389	3.00
274.779	8.00
275.169	-4.00
275.559	21.00
275.949	5.00
276.339	2.00
276.729	12.00
277.119	14.00
277.509	0.00
277.899	9.00
278.289	2.00
278.679	14.00
279.069	11.00
279.459	0.00
279.849	11.00
280.238	-3.00
280.628	8.00
281.018	6.00
281.408	3.00
281.798	1.00
282.188	3.00
282.578	-13.00
282.968	1.00
283.358	7.00
283.748	5.00
284.138	7.00
284.528	5.00
284.918	8.00
285.308	12.00
285.698	1.00
286.088	20.00
286.478	-1.00
286.867	-6.00
287.257	5.00
287.647	4.00
288.037	14.00
288.427	4.00
288.817	11.00
289.207	3.00
289.597	12.00
289.987	-3.00
290.377	4.00
290.767	1.00
291.157	-9.00
291.547	-12.00
291.937	7.00
292.327	9.00
292.716	2.00
293.106	2.00
293.496	0.00
293.886	33.00
294.276	2.00
294.666	8.00
295.056	10.00
295.446	-6.00
295.836	12.00
296.226	7.00
296.616	15.00
297.006	9.00
297.396	8.00
297.785	8.00
298.175	5.00
298.565	5.00
298.955	5.00
299.345	-1.00
299.735	-6.00
300.125	-1.00
300.515	5.00
300.905	0.00
301.295	3.00
301.685	5.00
302.075	3.00
302.465	9.00
302.854	-3.00
303.244	9.00
303.634	9.00
304.024	7.00
304.414	13.00
304.804	0.00
305.194	14.00
305.584	16.00
305.974	7.00
306.364	4.00
306.754	7.00
307.144	8.00
307.534	20.00
307.924	4.00
308.314	22.00
308.703	22.00
309.093	19.00
309.483	18.00
309.873	24.00
310.263	15.00
310.653	16.00
311.043	14.00
311.433	13.00
311.823	23.00
312.213	30.00
312.603	26.00
312.993	15.00
313.383	4.00
313.773	11.00
314.163	10.00
314.553	9.00
314.943	8.00
315.332	14.00
315.722	6.00
316.112	16.00
316.502	12.00
316.892	5.00
317.282	5.00
317.672	11.00
318.062	-1.00
318.452	3.00
318.842	18.00
319.232	3.00
319.622	14.00
320.012	-2.00
320.402	9.00
320.792	8.00
321.182	14.00
321.572	10.00
321.962	6.00
322.352	5.00
322.742	5.00
323.132	4.00
323.522	18.00
323.912	4.00
324.302	16.00
324.692	-6.00
325.082	8.00
325.472	5.00
325.862	7.00
326.252	2.00
326.642	5.00
327.032	16.00
327.422	4.00
327.812	10.00
328.202	13.00
328.592	2.00
328.982	13.00
329.372	6.00
329.762	2.00
330.152	7.00
330.542	7.00
330.932	7.00
331.322	15.00
331.712	10.00
332.102	12.00
332.492	6.00
332.882	18.00
333.272	8.00
333.662	24.00
334.052	24.00
334.442	23.00
334.832	30.00
335.222	21.00
335.612	17.00
336.002	3.00
336.392	1.00
336.782	10.00
337.172	13.00
337.562	22.00
337.952	15.00
338.342	12.00
338.733	11.00
339.123	12.00
339.513	14.00
339.903	12.00
340.293	20.00
340.683	17.00
341.073	26.00
341.463	25.00
341.853	23.00
342.243	31.00
342.633	17.00
343.023	24.00
343.413	25.00
343.804	22.00
344.194	29.00
344.584	28.00
344.974	19.00
345.364	27.00
345.754	19.00
346.144	41.00
346.534	45.00
346.924	31.00
347.315	30.00
347.705	27.00
348.095	20.00
348.485	36.00
348.875	34.00
349.265	44.00
349.655	25.00
350.046	27.00
350.436	35.00
350.826	36.00
351.216	35.00
351.606	25.00
351.996	25.00
352.387	32.00
352.777	37.00
353.167	24.00
353.557	25.00
353.947	35.00
354.337	30.00
354.728	47.00
355.118	32.00
355.508	44.00
355.898	47.00
356.288	53.00
356.679	54.00
357.069	47.00
357.459	42.00
357.849	46.00
358.240	57.00
358.630	53.00
359.020	48.00
359.410	49.00
359.801	46.00
360.191	51.00
360.581	46.00
360.971	47.00
361.362	56.00
361.752	68.00
362.142	63.00
362.532	70.00
362.923	54.00
363.313	87.00
363.703	157.00
364.093	462.00
364.484	937.00
364.874	1428.00
365.264	1753.00
365.655	1855.00
366.045	1691.00
366.435	1327.00
366.826	847.00
367.216	479.00
367.606	242.00
367.996	149.00
368.387	66.00
368.777	59.00
369.168	42.00
369.558	40.00
369.948	50.00
370.339	51.00
370.729	35.00
371.119	56.00
371.510	33.00
371.900	39.00
372.290	42.00
372.681	42.00
373.071	52.00
373.462	33.00
373.852	47.00
374.242	39.00
374.633	40.00
375.023	46.00
375.414	40.00
375.804	47.00
376.195	45.00
376.585	36.00
376.975	47.00
377.366	48.00
377.756	65.00
378.147	41.00
378.537	64.00
378.928	44.00
379.318	57.00
379.709	51.00
380.099	65.00
380.490	76.00
380.880	61.00
381.271	60.00
381.661	70.00
382.052	48.00
382.442	64.00
382.833	54.00
383.223	53.00
383.614	54.00
384.004	42.00
384.395	49.00
384.785	48.00
385.176	52.00
385.566	53.00
385.957	51.00
386.347	54.00
386.738	40.00
387.129	48.00
387.519	44.00
387.910	36.00
388.300	42.00
388.691	37.00
389.082	34.00
389.472	39.00
389.863	35.00
390.253	36.00
390.644	39.00
391.035	35.00
391.425	52.00
391.816	42.00
392.207	46.00
392.597	36.00
392.988	38.00
393.379	27.00
393.769	45.00
394.160	37.00
394.551	42.00
394.941	41.00
395.332	45.00
395.723	51.00
396.114	46.00
396.504	56.00
396.895	61.00
397.286	52.00
397.676	73.00
398.067	63.00
398.458	63.00
398.849	74.00
399.240	75.00
399.630	82.00
400.021	86.00
400.412	84.00
400.803	94.00
401.193	96.00
401.584	110.00
401.975	126.00
402.366	151.00
402.757	186.00
403.148	333.00
403.538	1114.00
403.929	2758.00
404.320	4575.00
404.711	5916.00
405.102	6229.00
405.493	5542.00
405.884	4214.00
406.274	2568.00
406.665	1087.00
407.056	573.00
407.447	662.00
407.838	740.00
408.229	801.00
408.620	774.00
409.011	633.00
409.402	471.00
409.793	354.00
410.184	305.00
410.575	312.00
410.966	330.00
411.357	354.00
411.748	365.00
412.139	388.00
412.530	414.00
412.921	410.00
413.312	453.00
413.703	454.00
414.094	495.00
414.485	512.00
414.876	550.00
415.267	541.00
415.658	598.00
416.049	622.00
416.440	638.00
416.831	675.00
417.222	687.00
417.613	731.00
418.004	747.00
418.395	773.00
418.787	777.00
419.178	810.00
419.569	835.00
419.960	866.00
420.351	858.00
420.742	952.00
421.133	949.00
421.525	985.00
421.916	997.00
422.307	1046.00
422.698	1092.00
423.089	1087.00
423.481	1126.00
423.872	1172.00
424.263	1185.00
424.654	1252.00
425.046	1267.00
425.437	1325.00
425.828	1373.00
426.219	1411.00
426.611	1430.00
427.002	1495.00
427.393	1547.00
427.785	1560.00
428.176	1614.00
428.567	1631.00
428.958	1687.00
429.350	1711.00
429.741	1753.00
430.133	1772.00
430.524	1887.00
430.915	1855.00
431.307	1910.00
431.698	1980.00
432.089	2008.00
432.481	2040.00
432.872	2097.00
433.264	2178.00
433.655	2361.00
434.047	2538.00
434.438	3372.00
434.829	6599.00
435.221	11729.00
435.612	16440.00
436.004	19302.00
436.395	19259.00
436.787	16354.00
437.178	12005.00
437.570	7511.00
437.961	3894.00
438.353	2697.00
438.744	2543.00
439.136	2568.00
439.528	2622.00
439.919	2596.00
440.311	2643.00
440.702	2635.00
441.094	2640.00
441.486	2678.00
441.877	2683.00
442.269	2680.00
442.660	2759.00
443.052	2729.00
443.444	2805.00
443.835	2776.00
444.227	2813.00
444.619	2815.00
445.010	2778.00
445.402	2846.00
445.794	2880.00
446.186	2889.00
446.577	2911.00
446.969	2869.00
447.361	2869.00
447.753	2921.00
448.144	2915.00
448.536	2961.00
448.928	2946.00
449.320	2963.00
449.711	2952.00
450.103	2980.00
450.495	2988.00
450.887	2984.00
451.279	2998.00
451.671	3007.00
452.062	2995.00
452.454	3033.00
452.846	2966.00
453.238	3054.00
453.630	2947.00
454.022	3032.00
454.414	3008.00
454.806	2969.00
455.198	2928.00
455.590	2975.00
455.982	2937.00
456.374	2891.00
456.766	2943.00
457.158	2922.00
457.550	2884.00
457.942	2917.00
458.334	2888.00
458.726	2827.00
459.118	2796.00
459.510	2792.00
459.902	2766.00
460.294	2811.00
460.686	2775.00
461.078	2743.00
461.470	2770.00
461.862	2718.00
462.254	2656.00
462.647	2685.00
463.039	2677.00
463.431	2612.00
463.823	2595.00
464.215	2577.00
464.607	2576.00
465.000	2542.00
465.392	2525.00
465.784	2528.00
466.176	2500.00
466.569	2504.00
466.961	2511.00
467.353	2504.00
467.745	2477.00
468.138	2453.00
468.530	2422.00
468.922	2347.00
469.315	2321.00
469.707	2325.00
470.099	2273.00
470.492	2249.00
470.884	2232.00
471.276	2225.00
471.669	2212.00
472.061	2160.00
472.453	2159.00
472.846	2110.00
473.238	2127.00
473.631	2115.00
474.023	2115.00
474.416	2051.00
474.808	2018.00
475.201	1987.00
475.593	1954.00
475.986	1914.00
476.378	1915.00
476.771	1921.00
477.163	1843.00
477.556	1848.00
477.948	1811.00
478.341	1838.00
478.733	1818.00
479.126	1843.00
479.519	1823.00
479.911	1792.00
480.304	1833.00
480.697	1827.00
481.089	1848.00
481.482	1886.00
481.875	1985.00
482.267	2056.00
482.660	2165.00
483.053	2316.00
483.445	2456.00
483.838	2680.00
484.231	2870.00
484.624	3106.00
485.016	3417.00
485.409	3621.00
485.802	3865.00
486.195	4104.00
486.588	4283.00
486.980	4412.00
487.373	4385.00
487.766	4324.00
488.159	4218.00
488.552	4039.00
488.945	3839.00
489.338	3638.00
489.731	3424.00
490.124	3280.00
490.517	3186.00
490.909	3115.00
491.302	3076.00
491.695	2930.00
492.088	2872.00
492.481	2847.00
492.874	2712.00
493.267	2605.00
493.661	2499.00
494.054	2460.00
494.447	2298.00
494.840	2258.00
495.233	2217.00
495.626	2182.00
496.019	2081.00
496.412	2052.00
496.805	1954.00
497.198	1905.00
497.592	1853.00
497.985	1828.00
498.378	1808.00
498.771	1737.00
499.164	1697.00
499.558	1664.00
499.951	1626.00
500.344	1613.00
500.737	1532.00
501.131	1544.00
501.524	1482.00
501.917	1471.00
502.311	1487.00
502.704	1465.00
503.097	1461.00
503.491	1457.00
503.884	1445.00
504.277	1441.00
504.671	1419.00
505.064	1491.00
505.458	1509.00
505.851	1527.00
506.245	1571.00
506.638	1576.00
507.031	1589.00
507.425	1647.00
507.818	1632.00
508.212	1693.00
508.605	1700.00
508.999	1723.00
509.393	1770.00
509.786	1816.00
510.180	1820.00
510.573	1837.00
510.967	1861.00
511.361	1895.00
511.754	1956.00
512.148	1896.00
512.542	1901.00
512.935	1934.00
513.329	1948.00
513.723	1943.00
514.116	1913.00
514.510	1885.00
514.904	1894.00
515.298	1907.00
515.691	1907.00
516.085	1859.00
516.479	1864.00
516.873	1856.00
517.267	1795.00
517.660	1808.00
518.054	1756.00
518.448	1703.00
518.842	1701.00
519.236	1651.00
519.630	1626.00
520.024	1621.00
520.418	1601.00
520.812	1564.00
521.206	1558.00
521.600	1479.00
521.994	1432.00
522.388	1472.00
522.782	1411.00
523.176	1376.00
523.570	1389.00
523.964	1320.00
524.358	1336.00
524.752	1308.00
525.146	1285.00
525.540	1263.00
525.934	1232.00
526.329	1223.00
526.723	1189.00
527.117	1171.00
527.511	1188.00
527.905	1136.00
528.300	1175.00
528.694	1091.00
529.088	1066.00
529.482	1084.00
529.877	1027.00
530.271	1043.00
530.665	1027.00
531.060	1022.00
531.454	995.00
531.848	1064.00
532.243	1129.00
532.637	1206.00
533.031	1219.00
533.426	1323.00
533.820	1289.00
534.215	1274.00
534.609	1226.00
535.004	1196.00
535.398	1220.00
535.793	1281.00
536.187	1417.00
536.582	1632.00
536.976	1863.00
537.371	2149.00
537.766	2414.00
538.160	2699.00
538.555	3069.00
538.949	3595.00
539.344	4294.00
539.739	5381.00
540.133	6976.00
540.528	9032.00
540.923	11321.00
541.317	13019.00
541.712	14012.00
542.107	14197.00
542.502	13599.00
542.897	12695.00
543.291	11804.00
543.686	11208.00
544.081	11201.00
544.476	12572.00
544.871	15752.00
545.266	19153.00
545.661	21656.00
546.055	22662.00
546.450	21133.00
546.845	17919.00
547.240	14217.00
547.635	10826.00
548.030	8430.00
548.425	7539.00
548.820	6725.00
549.215	6127.00
549.610	5402.00
550.005	4872.00
550.400	4325.00
550.796	3845.00
551.191	3444.00
551.586	3087.00
551.981	2761.00
552.376	2461.00
552.771	2209.00
553.166	2011.00
553.562	1784.00
553.957	1588.00
554.352	1426.00
554.747	1244.00
555.143	1099.00
555.538	981.00
555.933	885.00
556.329	798.00
556.724	746.00
557.119	676.00
557.515	657.00
557.910	596.00
558.306	572.00
558.701	541.00
559.096	517.00
559.492	497.00
559.887	447.00
560.283	435.00
560.678	443.00
561.074	416.00
561.469	409.00
561.865	400.00
562.260	379.00
562.656	387.00
563.052	373.00
563.447	369.00
563.843	350.00
564.239	325.00
564.634	309.00
565.030	299.00
565.426	292.00
565.821	275.00
566.217	257.00
566.613	273.00
567.009	256.00
567.405	263.00
567.800	252.00
568.196	274.00
568.592	257.00
568.988	264.00
569.384	248.00
569.780	226.00
570.176	205.00
570.572	186.00
570.967	187.00
571.363	176.00
571.759	191.00
572.155	165.00
572.551	175.00
572.948	175.00
573.344	184.00
573.740	201.00
574.136	203.00
574.532	234.00
574.928	299.00
575.324	707.00
575.720	1441.00
576.116	2059.00
576.513	2534.00
576.909	2799.00
577.305	2753.00
577.701	2802.00
578.098	2905.00
578.494	2960.00
578.890	3092.00
579.286	3071.00
579.683	2721.00
580.079	2378.00
580.475	2042.00
580.872	1856.00
581.268	1930.00
581.665	2055.00
582.061	2280.00
582.458	2510.00
582.854	2669.00
583.251	2774.00
583.647	2754.00
584.044	2737.00
584.440	2618.00
584.837	2500.00
585.233	2455.00
585.630	2490.00
586.027	2697.00
586.423	2962.00
586.820	3144.00
587.217	3105.00
587.613	2948.00
588.010	2579.00
588.407	2146.00
588.804	1792.00
589.200	1507.00
589.597	1435.00
589.994	1392.00
590.391	1462.00
590.788	1564.00
591.184	1686.00
591.581	1894.00
591.978	2167.00
592.375	2392.00
592.772	2501.00
593.169	2418.00
593.566	2189.00
593.963	1875.00
594.360	1552.00
594.757	1299.00
595.154	1089.00
595.551	1057.00
595.948	970.00
596.345	957.00
596.742	935.00
597.140	984.00
597.537	1043.00
597.934	1143.00
598.331	1328.00
598.728	1449.00
599.125	1505.00
599.523	1516.00
599.920	1403.00
600.317	1216.00
600.715	1053.00
601.112	864.00
601.509	736.00
601.907	663.00
602.304	605.00
602.702	570.00
603.099	526.00
603.496	565.00
603.894	571.00
604.291	613.00
604.689	617.00
605.086	668.00
605.484	723.00
605.882	778.00
606.279	862.00
606.677	954.00
607.074	1120.00
607.472	1300.00
607.870	1578.00
608.267	2020.00
608.665	2699.00
609.063	3957.00
609.461	6313.00
609.858	10071.00
610.256	14026.00
610.654	17271.00
611.052	18919.00
611.449	18325.00
611.847	15840.00
612.245	12965.00
612.643	10097.00
613.041	8045.00
613.439	6990.00
613.837	6337.00
614.235	5823.00
614.633	5083.00
615.031	4469.00
615.429	3693.00
615.827	3059.00
616.225	2576.00
616.623	2173.00
617.021	1914.00
617.419	1715.00
617.818	1618.00
618.216	1524.00
618.614	1500.00
619.012	1549.00
619.410	1648.00
619.809	1685.00
620.207	1718.00
620.605	1785.00
621.004	1766.00
621.402	1833.00
621.800	1866.00
622.199	1922.00
622.597	1963.00
622.996	1997.00
623.394	1996.00
623.792	2086.00
624.191	2036.00
624.589	2032.00
624.988	2073.00
625.387	2113.00
625.785	2085.00
626.184	1999.00
626.582	1749.00
626.981	1470.00
627.380	1395.00
627.778	1086.00
628.177	710.00
628.576	593.00
628.974	629.00
629.373	788.00
629.772	1032.00
630.171	1320.00
630.570	1574.00
630.968	1789.00
631.367	2012.00
631.766	1947.00
632.165	1570.00
632.564	1321.00
632.963	1230.00
633.362	1051.00
633.761	873.00
634.160	705.00
634.559	594.00
634.958	466.00
635.357	414.00
635.756	385.00
636.155	339.00
636.554	334.00
636.954	317.00
637.353	300.00
637.752	280.00
638.151	282.00
638.550	271.00
638.950	259.00
639.349	257.00
639.748	256.00
640.148	249.00
640.547	254.00
640.946	251.00
641.346	254.00
641.745	275.00
642.145	250.00
642.544	262.00
642.943	252.00
643.343	284.00
643.742	271.00
644.142	262.00
644.542	265.00
644.941	266.00
645.341	257.00
645.740	274.00
646.140	277.00
646.540	264.00
646.940	275.00
647.339	271.00
647.739	285.00
648.139	324.00
648.539	380.00
648.938	512.00
649.338	616.00
649.738	711.00
650.138	809.00
650.538	769.00
650.938	674.00
651.338	592.00
651.738	521.00
652.138	481.00
652.538	462.00
652.938	455.00
653.338	422.00
653.738	386.00
654.138	366.00
654.538	332.00
654.938	339.00
655.338	322.00
655.739	317.00
656.139	323.00
656.539	311.00
656.939	327.00
657.339	310.00
657.740	314.00
658.140	262.00
658.540	243.00
658.941	237.00
659.341	226.00
659.742	209.00
660.142	224.00
660.542	256.00
660.943	312.00
661.343	411.00
661.744	456.00
662.145	482.00
662.545	470.00
662.946	418.00
663.346	361.00
663.747	292.00
664.148	278.00
664.548	260.00
664.949	225.00
665.350	212.00
665.751	222.00
666.151	226.00
666.552	235.00
666.953	229.00
667.354	207.00
667.755	214.00
668.156	197.00
668.557	211.00
668.958	190.00
669.358	178.00
669.759	199.00
670.160	189.00
670.562	206.00
670.963	180.00
671.364	180.00
671.765	173.00
672.166	181.00
672.567	164.00
672.968	160.00
673.369	158.00
673.771	140.00
674.172	139.00
674.573	152.00
674.975	155.00
675.376	168.00
675.777	154.00
676.179	151.00
676.580	147.00
676.981	143.00
677.383	150.00
677.784	165.00
678.186	152.00
678.587	180.00
678.989	186.00
679.390	194.00
679.792	211.00
680.194	205.00
680.595	212.00
680.997	184.00
681.398	192.00
681.800	173.00
682.202	177.00
682.604	175.00
683.006	169.00
683.407	178.00
683.809	155.00
684.211	176.00
684.613	187.00
685.015	212.00
685.417	241.00
685.819	282.00
686.221	367.00
686.623	401.00
687.025	441.00
687.427	434.00
687.829	381.00
688.231	318.00
688.633	260.00
689.035	197.00
689.437	184.00
689.839	153.00
690.242	138.00
690.644	124.00
691.046	130.00
691.448	119.00
691.851	145.00
692.253	198.00
692.656	260.00
693.058	273.00
693.460	303.00
693.863	247.00
694.265	192.00
694.668	136.00
695.070	103.00
695.473	85.00
695.875	73.00
696.278	95.00
696.681	59.00
697.083	51.00
697.486	39.00
697.889	60.00
698.291	39.00
698.694	48.00
699.097	58.00
699.500	47.00
699.902	53.00
700.305	63.00
700.708	60.00
701.111	72.00
701.514	76.00
701.917	93.00
702.320	102.00
702.723	113.00
703.126	146.00
703.529	160.00
703.932	205.00
704.335	260.00
704.738	328.00
705.141	470.00
705.545	612.00
705.948	775.00
706.351	871.00
706.754	896.00
707.157	890.00
707.561	959.00
707.964	991.00
708.367	1008.00
708.771	941.00
709.174	834.00
709.578	672.00
709.981	539.00
710.385	477.00
710.788	547.00
711.192	667.00
711.595	795.00
711.999	810.00
712.402	738.00
712.806	600.00
713.210	386.00
713.613	262.00
714.017	158.00
714.421	95.00
714.825	79.00
715.229	67.00
715.632	60.00
716.036	39.00
716.440	44.00
716.844	38.00
717.248	33.00
717.652	55.00
718.056	40.00
718.460	24.00
718.864	42.00
719.268	22.00
719.672	39.00
720.076	32.00
720.480	40.00
720.884	31.00
721.289	21.00
721.693	34.00
722.097	29.00
722.501	28.00
722.906	24.00
723.310	14.00
723.714	24.00
724.119	33.00
724.523	25.00
724.927	28.00
725.332	25.00
725.736	26.00
726.141	19.00
726.545	37.00
726.950	25.00
727.355	32.00
727.759	26.00
728.164	15.00
728.569	22.00
728.973	25.00
729.378	21.00
729.783	29.00
730.188	7.00
730.592	18.00
730.997	6.00
731.402	33.00
731.807	25.00
732.212	31.00
732.617	15.00
733.022	11.00
733.427	34.00
733.832	18.00
734.237	14.00
734.642	18.00
735.047	5.00
735.452	16.00
735.857	26.00
736.263	14.00
736.668	30.00
737.073	38.00
737.478	44.00
737.884	48.00
738.289	49.00
738.694	45.00
739.100	35.00
739.505	22.00
739.911	20.00
740.316	17.00
740.721	26.00
741.127	33.00
741.532	22.00
741.938	34.00
742.344	48.00
742.749	49.00
743.155	35.00
743.561	22.00
743.966	15.00
744.372	22.00
744.778	9.00
745.184	26.00
745.590	23.00
745.995	15.00
746.401	24.00
746.807	14.00
747.213	15.00
747.619	20.00
748.025	24.00
748.431	12.00
748.837	18.00
749.243	30.00
749.649	41.00
750.056	76.00
750.462	61.00
750.868	68.00
751.274	49.00
751.680	51.00
752.087	31.00
752.493	34.00
752.899	14.00
753.306	12.00
753.712	1.00
754.119	6.00
754.525	5.00
754.932	2.00
755.338	11.00
755.744	1.00
756.151	15.00
756.558	21.00
756.964	3.00
757.371	10.00
757.778	4.00
758.184	6.00
758.591	6.00
758.998	7.00
759.405	5.00
759.811	5.00
760.218	11.00
760.625	4.00
761.032	2.00
761.439	0.00
761.846	29.00
762.253	92.00
762.660	117.00
763.067	158.00
763.474	170.00
763.881	145.00
764.289	97.00
764.696	50.00
765.103	26.00
765.510	9.00
765.917	11.00
766.325	17.00
766.732	2.00
767.139	9.00
767.547	6.00
767.954	13.00
768.362	8.00
768.769	-6.00
769.177	8.00
769.584	8.00
769.992	12.00
770.399	5.00
770.807	10.00
771.215	44.00
771.622	46.00
772.030	59.00
772.438	62.00
772.845	44.00
773.253	40.00
773.661	20.00
774.069	21.00
774.477	15.00
774.885	11.00
775.293	4.00
775.701	4.00
776.109	3.00
776.517	15.00
776.925	9.00
777.333	-7.00
777.741	4.00
778.149	-1.00
778.557	-1.00
778.965	14.00
779.374	1.00
779.782	0.00
780.190	4.00
780.599	-1.00
781.007	10.00
781.415	2.00
781.824	-6.00
782.232	5.00
782.641	5.00
783.049	3.00
783.458	7.00
783.866	12.00
784.275	9.00
784.684	-3.00
785.092	6.00
785.501	13.00
785.910	9.00
786.318	-7.00
786.727	2.00
787.136	2.00
787.545	8.00
787.954	13.00
788.363	4.00
788.772	6.00
789.181	-2.00
789.590	0.00
789.999	-3.00
790.408	2.00
790.817	-5.00
791.226	-2.00
791.635	-8.00
792.044	-1.00
792.454	8.00
792.863	7.00
793.272	13.00
793.681	16.00
794.091	33.00
794.500	43.00
794.910	48.00
795.319	36.00
795.728	21.00
796.138	19.00
796.547	2.00
796.957	20.00
797.367	3.00
797.776	5.00
798.186	1.00
798.596	-3.00
799.005	5.00
799.415	11.00
799.825	19.00
800.235	24.00
800.644	49.00
801.054	52.00
801.464	50.00
801.874	54.00
802.284	43.00
802.694	28.00
803.104	17.00
803.514	9.00
803.924	9.00
804.334	14.00
804.745	16.00
805.155	11.00
805.565	10.00
805.975	6.00
806.386	-5.00
806.796	14.00
807.206	6.00
807.617	-5.00
808.027	6.00
808.438	5.00
808.848	21.00
809.258	32.00
809.669	33.00
810.080	50.00
810.490	109.00
810.901	181.00
811.312	183.00
811.722	208.00
812.133	185.00
812.544	142.00
812.954	94.00
813.365	47.00
813.776	29.00
814.187	8.00
814.598	6.00
815.009	6.00
815.420	3.00
815.831	6.00
816.242	5.00
816.653	-4.00
817.064	4.00
817.475	2.00
817.887	2.00
818.298	-1.00
818.709	2.00
819.120	4.00
819.532	9.00
819.943	-2.00
820.354	5.00
820.766	-3.00
821.177	9.00
821.589	-1.00
822.000	9.00
822.412	3.00
822.823	3.00
823.235	0.00
823.647	-5.00
824.058	11.00
824.470	10.00
824.882	9.00
825.293	19.00
825.705	18.00
826.117	24.00
826.529	23.00
826.941	28.00
827.353	39.00
827.765	23.00
828.177	11.00
828.589	9.00
829.001	12.00
829.413	3.00
829.825	-1.00
830.237	11.00
830.649	2.00
831.062	12.00
831.474	-6.00
831.886	2.00
832.299	0.00
832.711	-12.00
833.123	8.00
833.536	5.00
833.948	3.00
834.361	4.00
834.773	-11.00
835.186	2.00
835.599	2.00
836.011	14.00
836.424	5.00
836.837	-10.00
837.249	4.00
837.662	7.00
838.075	-8.00
838.488	3.00
838.901	2.00
839.313	3.00
839.726	6.00
840.139	25.00
840.552	34.00
840.965	44.00
841.378	65.00
841.792	59.00
842.205	79.00
842.618	71.00
843.031	88.00
843.444	86.00
843.858	37.00
844.271	41.00
844.684	19.00
845.098	21.00
845.511	9.00
845.924	5.00
846.338	1.00
846.752	7.00
847.165	-2.00
847.579	12.00
847.992	-3.00
848.406	9.00
848.820	1.00
849.233	7.00
849.647	12.00
850.061	9.00
850.475	13.00
850.888	-2.00
851.302	8.00
851.716	18.00
852.130	20.00
852.544	30.00
852.958	18.00
853.372	24.00
853.786	10.00
854.201	13.00
854.615	8.00
855.029	1.00
855.443	2.00
855.858	-1.00
856.272	-3.00
856.686	4.00
857.100	4.00
857.515	-7.00
857.929	-2.00
858.344	-10.00
858.758	-5.00
859.173	-3.00
859.588	15.00
860.002	-9.00
860.417	1.00
860.831	2.00
861.246	2.00
861.661	20.00
862.076	14.00
862.491	7.00
862.906	-1.00
863.320	-3.00
863.735	15.00
864.150	5.00
864.565	11.00
864.980	-5.00
865.395	2.00
865.811	10.00
866.226	-3.00
866.641	9.00
867.056	4.00
867.471	1.00
867.887	0.00
868.302	4.00
868.717	3.00
869.133	-4.00
869.548	8.00
869.964	-3.00
870.379	11.00
870.795	1.00
871.210	-4.00
871.626	2.00
872.042	5.00
872.457	3.00
872.873	6.00
873.289	-2.00
873.704	3.00
874.120	11.00
874.536	3.00
874.952	12.00
875.368	3.00
875.784	4.00
876.200	1.00
876.616	9.00
877.032	0.00
877.448	2.00
877.864	4.00
878.280	-3.00
878.697	0.00
879.113	1.00
879.529	6.00
879.945	-2.00
880.362	-3.00
880.778	3.00
881.195	-9.00
881.611	4.00
882.028	6.00
882.444	-5.00
882.861	13.00
883.277	-3.00
883.694	8.00
884.111	3.00
884.528	5.00
884.944	6.00
885.361	6.00
885.778	17.00
886.195	1.00
886.612	10.00
887.029	-2.00
887.446	7.00
887.863	-4.00
888.280	8.00
888.697	8.00
889.114	5.00
889.531	14.00
889.948	11.00
890.366	-3.00
890.783	6.00
891.200	22.00
891.618	10.00
892.035	8.00
892.452	1.00
892.870	-10.00
893.287	9.00
893.705	14.00
894.122	6.00
894.540	5.00
894.958	11.00
895.375	17.00
895.793	12.00
896.211	3.00
896.629	-4.00
897.046	5.00
897.464	1.00
897.882	19.00
898.300	16.00
898.718	5.00
899.136	14.00
899.554	1.00
899.972	2.00
900.390	18.00
900.809	12.00
901.227	10.00
901.645	-2.00
902.063	5.00
902.482	7.00
902.900	13.00
903.318	6.00
903.737	16.00
904.155	6.00
904.574	-3.00
904.992	-8.00
905.411	8.00
905.829	14.00
906.248	5.00
906.667	-4.00
907.086	10.00
907.504	11.00
907.923	8.00
908.342	13.00
908.761	4.00
909.180	2.00
909.599	6.00
910.018	6.00
910.437	9.00
910.856	1.00
911.275	-1.00
911.694	5.00
912.113	7.00
912.532	24.00
912.952	22.00
913.371	54.00
913.790	60.00
914.210	78.00
914.629	66.00
915.049	58.00
915.468	46.00
915.888	25.00
916.307	29.00
916.727	19.00
917.146	29.00
917.566	25.00
917.986	13.00
918.406	12.00
918.825	16.00
919.245	28.00
919.665	32.00
920.085	22.00
920.505	16.00
920.925	22.00
921.345	32.00
921.765	22.00
922.185	56.00
922.605	62.00
923.026	50.00
923.446	64.00
923.866	85.00
924.286	68.00
924.707	74.00
925.127	44.00
925.547	44.00
925.968	25.00
926.388	23.00
926.809	24.00
927.229	14.00
927.650	22.00
928.071	14.00
928.491	12.00
928.912	19.00
929.333	21.00
929.754	1.00
930.175	3.00
930.595	9.00
931.016	6.00
931.437	15.00
931.858	5.00
932.279	9.00
932.700	15.00
933.122	0.00
933.543	0.00
933.964	2.00
934.385	-5.00
934.806	6.00
935.228	8.00
935.649	-5.00
936.070	11.00
936.492	-4.00
936.913	7.00
937.335	1.00
937.756	-1.00
938.178	13.00
938.600	4.00
939.021	11.00
939.443	-2.00
939.865	-4.00
940.286	1.00
940.708	-1.00
941.130	16.00
941.552	1.00
941.974	6.00
942.396	-5.00
942.818	3.00
943.240	2.00
943.662	-11.00
944.084	12.00
944.507	2.00
944.929	8.00
945.351	11.00
945.773	-4.00
946.196	-4.00
946.618	12.00
947.041	5.00
947.463	12.00
947.886	6.00
948.308	8.00
948.731	8.00
949.153	4.00
949.576	16.00
949.999	8.00
950.421	0.00
950.844	2.00
951.267	10.00
951.690	-3.00
952.113	-5.00
952.536	3.00
952.959	-8.00
953.382	15.00
953.805	6.00
954.228	4.00
954.651	5.00
955.074	-11.00
955.498	0.00
955.921	-8.00
956.344	-4.00
956.768	3.00
957.191	9.00
957.614	8.00
958.038	3.00
958.461	-6.00
958.885	2.00
959.309	12.00
959.732	6.00
960.156	2.00
960.580	1.00
961.003	1.00
961.427	15.00
961.851	15.00
962.275	3.00
962.699	8.00
963.123	12.00
963.547	9.00
963.971	13.00
964.395	5.00
964.819	4.00
965.243	-2.00
965.668	-2.00
966.092	15.00
966.516	10.00
966.940	9.00
967.365	-4.00
967.789	2.00
968.214	4.00
968.638	13.00
969.063	19.00
969.487	15.00
969.912	17.00
970.337	5.00
970.761	15.00
971.186	15.00
971.611	7.00
972.036	5.00
972.461	6.00
972.885	9.00
973.310	16.00
973.735	6.00
974.161	1.00
974.586	2.00
975.011	0.00
975.436	11.00
975.861	13.00
976.286	-1.00
976.712	4.00
977.137	5.00
977.562	1.00
977.988	2.00
